#Parameters = {B=55; Cut=0.5; D_M=8.1; Feed=35.7; Feed_real=-8.2; Groudmax=0; LPiste=5.4; Largeur=27; TermA=92; Zmax=0.152; Zmin=0}
#"Frequency / MHz"	"S1,1 [Magnitude / dB]"
#-----------------------------------------
700.00000000000	-0.62155933907342
700.40002441406	-0.62462877837528
700.79998779297	-0.62777476047802
701.20001220703	-0.63099631325531
701.59997558594	-0.63429474550059
702.00000000000	-0.63766910673475
702.40002441406	-0.64111997040243
702.79998779297	-0.64464826646311
703.20001220703	-0.64825336721888
703.59997558594	-0.65193482603010
704.00000000000	-0.65569452542623
704.40002441406	-0.65953127179743
704.79998779297	-0.66344542376153
705.20001220703	-0.66743689270820
705.59997558594	-0.67150513693715
706.00000000000	-0.67565150627957
706.40002441406	-0.67987468889254
706.79998779297	-0.68417512107946
707.20001220703	-0.68855231394950
707.59997558594	-0.69300671553864
708.00000000000	-0.69753863511344
708.40002441406	-0.70214574717709
708.79998779297	-0.70682945465264
709.20001220703	-0.71158938715717
709.59997558594	-0.71642566398940
710.00000000000	-0.72133728228881
710.40002441406	-0.72632399556331
710.79998779297	-0.73138615600880
711.20001220703	-0.73652309540835
711.59997558594	-0.74173363526027
712.00000000000	-0.74701868004500
712.40002441406	-0.75237692412493
712.79998779297	-0.75780905064642
713.20001220703	-0.76331493213424
713.59997558594	-0.76889168288204
714.00000000000	-0.77454011654905
714.40002441406	-0.78026143428839
714.79998779297	-0.78605325290488
715.20001220703	-0.79191557890895
715.59997558594	-0.79784892072160
716.00000000000	-0.80385105422474
716.40002441406	-0.80992278521808
716.79998779297	-0.81606429492989
717.20001220703	-0.82227295141899
717.59997558594	-0.82854978484935
718.00000000000	-0.83489443456293
718.40002441406	-0.84130633363363
718.79998779297	-0.84778270067252
719.20001220703	-0.85432665915293
719.59997558594	-0.86093423894917
720.00000000000	-0.86760744260753
720.40002441406	-0.87434499523156
720.79998779297	-0.88114649224245
721.20001220703	-0.88801028884997
721.59997558594	-0.89493800835647
722.00000000000	-0.90192635388511
722.40002441406	-0.90897773868840
722.79998779297	-0.91609014483869
723.20001220703	-0.92326278472866
723.59997558594	-0.93049556299165
724.00000000000	-0.93778796455991
724.40002441406	-0.94513884963186
724.79998779297	-0.95254952557441
725.20001220703	-0.96001871297442
725.59997558594	-0.96754424371579
726.00000000000	-0.97512806690377
726.40002441406	-0.98276826430420
726.79998779297	-0.99046524188109
727.20001220703	-0.99821758813844
727.59997558594	-1.0060263610717
728.00000000000	-1.0138891070490
728.40002441406	-1.0218072684673
728.79998779297	-1.0297802102170
729.20001220703	-1.0378063688899
729.59997558594	-1.0458860283160
730.00000000000	-1.0540189237522
730.40002441406	-1.0622062475402
730.79998779297	-1.0704441760771
731.20001220703	-1.0787358941434
731.59997558594	-1.0870787930789
732.00000000000	-1.0954732743471
732.40002441406	-1.1039201308304
732.79998779297	-1.1124170826949
733.20001220703	-1.1209661723486
733.59997558594	-1.1295655865555
734.00000000000	-1.1382156376230
734.40002441406	-1.1469160142221
734.79998779297	-1.1556663039518
735.20001220703	-1.1644672591855
735.59997558594	-1.1733187573532
736.00000000000	-1.1822198266733
736.40002441406	-1.1911701986529
736.79998779297	-1.2001715875407
737.20001220703	-1.2092223403815
737.59997558594	-1.2183231435910
738.00000000000	-1.2274738309523
738.40002441406	-1.2366742387564
738.79998779297	-1.2459249858934
739.20001220703	-1.2552256998989
739.59997558594	-1.2645761126746
740.00000000000	-1.2739775013030
740.40002441406	-1.2834285857574
740.79998779297	-1.2929319744908
741.20001220703	-1.3024849285117
741.59997558594	-1.3120889271778
742.00000000000	-1.3217443547972
742.40002441406	-1.3314514543638
742.79998779297	-1.3412113801913
743.20001220703	-1.3510220107573
743.59997558594	-1.3608861907895
744.00000000000	-1.3708032406293
744.40002441406	-1.3807744160522
744.79998779297	-1.3907986984283
745.20001220703	-1.4008766628632
745.59997558594	-1.4110097719903
746.00000000000	-1.4211983418244
746.40002441406	-1.4314428402127
746.79998779297	-1.4417428960768
747.20001220703	-1.4521011125025
747.59997558594	-1.4625158524372
748.00000000000	-1.4729889346360
748.40002441406	-1.4835204455411
748.79998779297	-1.4941118289176
749.20001220703	-1.5047637467406
749.59997558594	-1.5154755935655
750.00000000000	-1.5262490992049
750.40002441406	-1.5370855985388
750.79998779297	-1.5479860456431
751.20001220703	-1.5589488382654
751.59997558594	-1.5699781571282
752.00000000000	-1.5810722023812
752.40002441406	-1.5922328999421
752.79998779297	-1.6034616346702
753.20001220703	-1.6147596517723
753.59997558594	-1.6261262261790
754.00000000000	-1.6375640728826
754.40002441406	-1.6490731529106
754.79998779297	-1.6606546234810
755.20001220703	-1.6723098719369
755.59997558594	-1.6840401513651
756.00000000000	-1.6958472778676
756.40002441406	-1.7077306559332
756.79998779297	-1.7196925814976
757.20001220703	-1.7317334557271
757.59997558594	-1.7438554559105
758.00000000000	-1.7560592481187
758.40002441406	-1.7683467197655
758.79998779297	-1.7807179269584
759.20001220703	-1.7931757832284
759.59997558594	-1.8057198205961
760.00000000000	-1.8183536306584
760.40002441406	-1.8310767072869
760.79998779297	-1.8438901089442
761.20001220703	-1.8567970464573
761.59997558594	-1.8697980615196
762.00000000000	-1.8828950245242
762.40002441406	-1.8960891530612
762.79998779297	-1.9093816717646
763.20001220703	-1.9227738123145
763.59997558594	-1.9362673680892
764.00000000000	-1.9498649641703
764.40002441406	-1.9635671227413
764.79998779297	-1.9773757120133
765.20001220703	-1.9912919436268
765.59997558594	-2.0053177470662
766.00000000000	-2.0194555975738
766.40002441406	-2.0337061797506
766.79998779297	-2.0480707178625
767.20001220703	-2.0625529500485
767.59997558594	-2.0771530248424
768.00000000000	-2.0918720764773
768.40002441406	-2.1067133944808
768.79998779297	-2.1216782863591
769.20001220703	-2.1367680406664
769.59997558594	-2.1519852317848
770.00000000000	-2.1673311880328
770.40002441406	-2.1828079375739
770.79998779297	-2.1984174679108
771.20001220703	-2.2141617600765
771.59997558594	-2.2300422489604
772.00000000000	-2.2460609288031
772.40002441406	-2.2622198779261
772.79998779297	-2.2785210872928
773.20001220703	-2.2949668263579
773.59997558594	-2.3115584166491
774.00000000000	-2.3282986920421
774.40002441406	-2.3451884696089
774.79998779297	-2.3622312314462
775.20001220703	-2.3794272385413
775.59997558594	-2.3967820225352
776.00000000000	-2.4142931358744
776.40002441406	-2.4319648400984
776.79998779297	-2.4498001505401
777.20001220703	-2.4677993255439
777.59997558594	-2.4859653971875
778.00000000000	-2.5043014407288
778.40002441406	-2.5228078272625
778.79998779297	-2.5414883569618
779.20001220703	-2.5603441127739
779.59997558594	-2.5793769277833
780.00000000000	-2.5985907499847
780.40002441406	-2.6179867335009
780.79998779297	-2.6375682137621
781.20001220703	-2.6573343529124
781.59997558594	-2.6772906178062
782.00000000000	-2.6974383596980
782.40002441406	-2.7177796508867
782.79998779297	-2.7383158757521
783.20001220703	-2.7590534485047
783.59997558594	-2.7799888927927
784.00000000000	-2.8011287023638
784.40002441406	-2.8224737476823
784.79998779297	-2.8440263426438
785.20001220703	-2.8657895993417
785.59997558594	-2.8877652136985
786.00000000000	-2.9099571210373
786.40002441406	-2.9323656758977
786.79998779297	-2.9549956327805
787.20001220703	-2.9778467279452
787.59997558594	-3.0009231022605
788.00000000000	-3.0242275088926
788.40002441406	-3.0477627592686
788.79998779297	-3.0715302490801
789.20001220703	-3.0955329046810
789.59997558594	-3.1197737130764
790.00000000000	-3.1442557317575
790.40002441406	-3.1689805937015
790.79998779297	-3.1939514821799
791.20001220703	-3.2191709018373
791.59997558594	-3.2446421752316
792.00000000000	-3.2703671924582
792.40002441406	-3.2963486605494
792.79998779297	-3.3225901164219
793.20001220703	-3.3490936563957
793.59997558594	-3.3758622059888
794.00000000000	-3.4028987675363
794.40002441406	-3.4302064219640
794.79998779297	-3.4577883308642
795.20001220703	-3.4856446454304
795.59997558594	-3.5137825453970
796.00000000000	-3.5422023405207
796.40002441406	-3.5709067327910
796.79998779297	-3.5998992886516
797.20001220703	-3.6291852400905
797.59997558594	-3.6587636260557
798.00000000000	-3.6886414330401
798.40002441406	-3.7188186445357
798.79998779297	-3.7493000749597
799.20001220703	-3.7800874457775
799.59997558594	-3.8111857781006
800.00000000000	-3.8425969819181
800.40002441406	-3.8743254782339
800.79998779297	-3.9063733591189
801.20001220703	-3.9387436093480
801.59997558594	-3.9714417858077
802.00000000000	-4.0044694437738
802.40002441406	-4.0378299034643
802.79998779297	-4.0715281961622
803.20001220703	-4.1055661866879
803.59997558594	-4.1399483382153
804.00000000000	-4.1746775467909
804.40002441406	-4.2097576267060
804.79998779297	-4.2451925750769
805.20001220703	-4.2809864279357
805.59997558594	-4.3171416724757
806.00000000000	-4.3536634896425
806.40002441406	-4.3905545827951
806.79998779297	-4.4278195069287
807.20001220703	-4.4654620348782
807.59997558594	-4.5034861627844
808.00000000000	-4.5418958946344
808.40002441406	-4.5806945688249
808.79998779297	-4.6198890948340
809.20001220703	-4.6594795783904
809.59997558594	-4.6994740430495
810.00000000000	-4.7398745891891
810.40002441406	-4.7806860948426
810.79998779297	-4.8219126044704
811.20001220703	-4.8635601371400
811.59997558594	-4.9056312575639
812.00000000000	-4.9481323025240
812.40002441406	-4.9910669930253
812.79998779297	-5.0344401101893
813.20001220703	-5.0782575664909
813.59997558594	-5.1225225687206
814.00000000000	-5.1672413222668
814.40002441406	-5.2124192218835
814.79998779297	-5.2580599512061
815.20001220703	-5.3041701754711
815.59997558594	-5.3507547537487
816.00000000000	-5.3978189168453
816.40002441406	-5.4453688258901
816.79998779297	-5.4934108552332
817.20001220703	-5.5419467537917
817.59997558594	-5.5909871920615
818.00000000000	-5.6405360682152
818.40002441406	-5.6905995997901
818.79998779297	-5.7411831108335
819.20001220703	-5.7922935673269
819.59997558594	-5.8439381488942
820.00000000000	-5.8961212353804
820.40002441406	-5.9488503371931
820.79998779297	-6.0021338303281
821.20001220703	-6.0559772067225
821.59997558594	-6.1103874356923
822.00000000000	-6.1653720733125
822.40002441406	-6.2209381105290
822.79998779297	-6.2770940140774
823.20001220703	-6.3338459107542
823.59997558594	-6.3912020446603
824.00000000000	-6.4491704688705
824.40002441406	-6.5077596264871
824.79998779297	-6.5669771992124
825.20001220703	-6.6268325136609
825.59997558594	-6.6873335173285
826.00000000000	-6.7484892122296
826.40002441406	-6.8103087184888
826.79998779297	-6.8728007915748
827.20001220703	-6.9359763132355
827.59997558594	-6.9998434049062
828.00000000000	-7.0644121482644
828.40002441406	-7.1296937519757
828.79998779297	-7.1956983754954
829.20001220703	-7.2624345419213
829.59997558594	-7.3299169406812
830.00000000000	-7.3981538781888
830.40002441406	-7.4671577924729
830.79998779297	-7.5369403803003
831.20001220703	-7.6075131513511
831.59997558594	-7.6788898352750
832.00000000000	-7.7510814630899
832.40002441406	-7.8241022505317
832.79998779297	-7.8979646440534
833.20001220703	-7.9726842272756
833.59997558594	-8.0482725074909
834.00000000000	-8.1247456599074
834.40002441406	-8.2021187832871
834.79998779297	-8.2804062617095
835.20001220703	-8.3596245299177
835.59997558594	-8.4397891462626
836.00000000000	-8.5209181466080
836.40002441406	-8.6030267053693
836.79998779297	-8.6861349229476
837.20001220703	-8.7702589121735
837.59997558594	-8.8554191115985
838.00000000000	-8.9416337644651
838.40002441406	-9.0289231819211
838.79998779297	-9.1173074724068
839.20001220703	-9.2068094709200
839.59997558594	-9.2974501297417
840.00000000000	-9.3892515334194
840.40002441406	-9.4822378727842
840.79998779297	-9.5764342953101
841.20001220703	-9.6718632766672
841.59997558594	-9.7685536580005
842.00000000000	-9.8665308923607
842.40002441406	-9.9658223333423
842.79998779297	-10.066456800019
843.20001220703	-10.168464436748
843.59997558594	-10.271876944027
844.00000000000	-10.376724142469
844.40002441406	-10.483042066829
844.79998779297	-10.590861614652
845.20001220703	-10.700221517047
845.59997558594	-10.811158483513
846.00000000000	-10.923709664383
846.40002441406	-11.037918097116
846.79998779297	-11.153822816815
847.20001220703	-11.271467342330
847.59997558594	-11.390899026345
848.00000000000	-11.512163841135
848.40002441406	-11.635312472669
848.79998779297	-11.760393470932
849.20001220703	-11.887463740993
849.59997558594	-12.016577970785
850.00000000000	-12.147794268175
850.40002441406	-12.281175939371
850.79998779297	-12.416785296102
851.20001220703	-12.554690003063
851.59997558594	-12.694962307307
852.00000000000	-12.837674804194
852.40002441406	-12.982905338795
852.79998779297	-13.130737494220
853.20001220703	-13.281255695055
853.59997558594	-13.434550778738
854.00000000000	-13.590718379257
854.40002441406	-13.749859167251
854.79998779297	-13.912080294448
855.20001220703	-14.077492297424
855.59997558594	-14.246216069627
856.00000000000	-14.418376307818
856.40002441406	-14.594107497048
856.79998779297	-14.773550137511
857.20001220703	-14.956855985599
857.59997558594	-15.144184277645
858.00000000000	-15.335706569582
858.40002441406	-15.531604937911
858.79998779297	-15.732073332388
859.20001220703	-15.937320238464
859.59997558594	-16.147570541570
860.00000000000	-16.363061486700
860.40002441406	-16.584052407933
860.79998779297	-16.810819387766
861.20001220703	-17.043663764653
861.59997558594	-17.282907125073
862.00000000000	-17.528902773367
862.40002441406	-17.782030110120
862.79998779297	-18.042704591184
863.20001220703	-18.311379165062
863.59997558594	-18.588547725267
864.00000000000	-18.874753972752
864.40002441406	-19.170595586656
864.79998779297	-19.476731600326
865.20001220703	-19.793891610061
865.59997558594	-20.122886106169
866.00000000000	-20.464619272240
866.40002441406	-20.820104926925
866.79998779297	-21.190479478661
867.20001220703	-21.577029455349
867.59997558594	-21.981215389392
868.00000000000	-22.404704439354
868.40002441406	-22.849410822771
868.79998779297	-23.317546722555
869.20001220703	-23.811689060366
869.59997558594	-24.334856029881
870.00000000000	-24.890623658637
870.40002441406	-25.483257794706
870.79998779297	-26.117904939712
871.20001220703	-26.800845722114
871.59997558594	-27.539841694163
872.00000000000	-28.344612046328
872.40002441406	-29.227523835962
872.79998779297	-30.204556659622
873.20001220703	-31.296692567057
873.59997558594	-32.531847901784
874.00000000000	-33.947246795042
874.40002441406	-35.590928908440
874.79998779297	-37.515075394014
875.20001220703	-39.726180757842
875.59997558594	-41.953160166268
876.00000000000	-43.105447036872
876.40002441406	-42.089926512103
876.79998779297	-39.900402513826
877.20001220703	-37.686692972399
877.59997558594	-35.755203645745
878.00000000000	-34.107037274750
878.40002441406	-32.690590551728
878.79998779297	-31.457174271221
879.20001220703	-30.368879842129
879.59997558594	-29.397261990494
880.00000000000	-28.520952938270
880.40002441406	-27.723693139498
880.79998779297	-26.992917716198
881.20001220703	-26.318754489958
881.59997558594	-25.693332667011
882.00000000000	-25.110286257727
882.40002441406	-24.564403643800
882.79998779297	-24.051366403057
883.20001220703	-23.567560411405
883.59997558594	-23.109930920486
884.00000000000	-22.675876076036
884.40002441406	-22.263162655338
884.79998779297	-21.869856170809
885.20001220703	-21.494275305686
885.59997558594	-21.134946806120
886.00000000000	-20.790573133439
886.40002441406	-20.460008125117
886.79998779297	-20.142230085855
887.20001220703	-19.836327420149
887.59997558594	-19.541483616422
888.00000000000	-19.256963558210
888.40002441406	-18.982102842557
888.79998779297	-18.716301056959
889.20001220703	-18.459009519253
889.59997558594	-18.209730455753
890.00000000000	-17.968008169118
890.40002441406	-17.733425965291
890.79998779297	-17.505597886418
891.20001220703	-17.284172261816
891.59997558594	-17.068822402456
892.00000000000	-16.859247461629
892.40002441406	-16.655166953440
892.79998779297	-16.456323195891
893.20001220703	-16.262472405076
893.59997558594	-16.073391319883
894.00000000000	-15.888870393894
894.40002441406	-15.708713533557
894.79998779297	-15.532735744869
895.20001220703	-15.360766339868
895.59997558594	-15.192644968206
896.00000000000	-15.028216941823
896.40002441406	-14.867341489364
896.79998779297	-14.709884096380
897.20001220703	-14.555716505644
897.59997558594	-14.404720918849
898.00000000000	-14.256781311334
898.40002441406	-14.111792043520
898.79998779297	-13.969651550378
899.20001220703	-13.830263238998
899.59997558594	-13.693535681206
900.00000000000	-13.559381634888
900.40002441406	-13.427718855037
900.79998779297	-13.298468498124
901.20001220703	-13.171555486474
901.59997558594	-13.046907935709
902.00000000000	-12.924459765403
902.40002441406	-12.804143369258
902.79998779297	-12.685898084154
903.20001220703	-12.569664780722
903.59997558594	-12.455385333678
904.00000000000	-12.343005800800
904.40002441406	-12.232475138192
904.79998779297	-12.123740923283
905.20001220703	-12.016757709419
905.59997558594	-11.911478215290
906.00000000000	-11.807859021704
906.40002441406	-11.705856509634
906.79998779297	-11.605430674707
907.20001220703	-11.506542641986
907.59997558594	-11.409152561304
908.00000000000	-11.313226299784
908.40002441406	-11.218728208066
908.79998779297	-11.125624334371
909.20001220703	-11.033881902686
909.59997558594	-10.943468133703
910.00000000000	-10.854355627681
910.40002441406	-10.766512977772
910.79998779297	-10.679911690259
911.20001220703	-10.594525907134
911.59997558594	-10.510327096403
912.00000000000	-10.427291994213
912.40002441406	-10.345393921909
912.79998779297	-10.264609014370
913.20001220703	-10.184915082009
913.59997558594	-10.106289594137
914.00000000000	-10.028710287184
914.40002441406	-9.9521541344329
914.79998779297	-9.8766032021419
915.20001220703	-9.8020369456668
915.59997558594	-9.7284346402555
916.00000000000	-9.6557794165922
916.40002441406	-9.5840517585485
916.79998779297	-9.5132345258028
917.20001220703	-9.4433103774455
917.59997558594	-9.3742629097082
918.00000000000	-9.3060744713960
918.40002441406	-9.2387308280795
918.79998779297	-9.1722152611982
919.20001220703	-9.1065136773014
919.59997558594	-9.0416103100142
920.00000000000	-8.9774933311359
920.40002441406	-8.9141460296034
920.79998779297	-8.8515556266692
921.20001220703	-8.7897105749924
921.59997558594	-8.7285955255810
922.00000000000	-8.6682002592101
922.40002441406	-8.6085111586694
922.79998779297	-8.5495172374027
923.20001220703	-8.4912050976498
923.59997558594	-8.4335651577622
924.00000000000	-8.3765854778989
924.40002441406	-8.3202561764573
924.79998779297	-8.2645644652849
925.20001220703	-8.2095022473176
925.59997558594	-8.1550579554838
926.00000000000	-8.1012226872380
926.40002441406	-8.0479860641026
926.79998779297	-7.9953386253203
927.20001220703	-7.9432718786737
927.59997558594	-7.8917766452761
928.00000000000	-7.8408420776588
928.40002441406	-7.7904623286304
928.79998779297	-7.7406264571261
929.20001220703	-7.6913289434342
929.59997558594	-7.6425586852101
930.00000000000	-7.5943090747598
930.40002441406	-7.5465720112295
930.79998779297	-7.4993407280047
931.20001220703	-7.4526062679640
931.59997558594	-7.4063620479008
932.00000000000	-7.3606007319874
932.40002441406	-7.3153145908689
932.79998779297	-7.2704984343893
933.20001220703	-7.2261436348814
933.59997558594	-7.1822436968540
934.00000000000	-7.1387930775840
934.40002441406	-7.0957841578992
934.79998779297	-7.0532121774474
935.20001220703	-7.0110689490614
935.59997558594	-6.9693491894718
936.00000000000	-6.9280480675827
936.40002441406	-6.8871585911520
936.79998779297	-6.8466743907619
937.20001220703	-6.8065900161946
937.59997558594	-6.7669015975524
938.00000000000	-6.7276010460741
938.40002441406	-6.6886847431780
